S0		A0		S1		S2		S3		S4		A1		A2		A3		A4	
316  Points		313  Points		263  Points		183  Points		155  Points		106  Points		286  Points		227  Points		159  Points		122  Points	
Freq (MHz)	Vph (m/ms)	Freq (MHz)	Vph (m/ms)	Freq (MHz)	Vph (m/ms)	Freq (MHz)	Vph (m/ms)	Freq (MHz)	Vph (m/ms)	Freq (MHz)	Vph (m/ms)	Freq (MHz)	Vph (m/ms)	Freq (MHz)	Vph (m/ms)	Freq (MHz)	Vph (m/ms)	Freq (MHz)	Vph (m/ms)
0.0473357	5.4658	0.0132621	0.360914	3.02929	475.862	3.2307	579.132	6.46	9352.86	9.09011	968.595	1.61503	991.867	4.84499	936.895	6.06003	2046.61	8.07508	836.633
0.106174	5.46527	0.0220361	0.463798	3.02499	176.564	3.23592	197.974	6.46009	563.837	9.0905	451.108	1.61671	130.433	4.84493	303.986	6.06066	441.492	8.07535	395.491
0.164989	5.46436	0.0329047	0.564606	3.01735	108.152	3.24569	119.715	6.46034	290.692	9.09118	294.04	1.62095	69.9844	4.84482	181.422	6.0621	247.49	8.07583	258.963
0.223769	5.46306	0.0457747	0.662962	3.00721	77.7743	3.25919	86.0432	6.46075	195.836	9.09214	218.116	1.62772	47.9754	4.84464	129.289	6.06436	171.985	8.0765	192.518
0.2825	5.46137	0.0605452	0.758594	2.99539	60.5956	3.27559	67.3364	6.46133	147.663	9.09339	173.367	1.63696	36.6252	4.84442	100.428	6.06741	131.821	8.07736	153.217
0.341169	5.45926	0.077106	0.851256	2.98254	49.5446	3.29424	55.4476	6.46206	118.518	9.09491	143.865	1.6486	29.725	4.84415	82.0978	6.07127	106.899	8.07843	127.249
0.399762	5.45673	0.0953419	0.940758	2.96915	41.8391	3.31465	47.2317	6.46296	98.9875	9.09672	122.954	1.66254	25.1031	4.84385	69.4246	6.07592	89.9323	8.07969	108.815
0.458264	5.45377	0.115138	1.02699	2.95554	36.1612	3.33647	41.2188	6.46402	84.9888	9.0988	107.359	1.67868	21.8024	4.84352	60.1395	6.08135	77.6399	8.08116	95.0517
0.51666	5.45037	0.136378	1.10986	2.94199	31.8056	3.35944	36.6304	6.46525	74.4638	9.10116	95.282	1.6969	19.3354	4.84317	53.044	6.08756	68.3271	8.08282	84.3849
0.574934	5.4465	0.158952	1.18935	2.92867	28.3604	3.38339	33.0156	6.46664	66.2629	9.1038	85.6547	1.71711	17.4275	4.84281	47.4453	6.09453	61.0301	8.08469	75.8756
0.633068	5.44214	0.182749	1.26546	2.91571	25.5691	3.40819	30.0956	6.46821	59.6933	9.1067	77.8008	1.73916	15.9125	4.84246	42.9151	6.10225	55.1602	8.08676	68.9299
0.691045	5.43729	0.207667	1.33824	2.90323	23.2632	3.43374	27.6888	6.46994	54.3126	9.10986	71.272	1.76295	14.6837	4.84212	39.1743	6.11071	50.3377	8.08903	63.1535
0.748844	5.4319	0.233608	1.40774	2.8913	21.3276	3.45996	25.6714	6.47184	49.8253	9.11329	65.7596	1.78835	13.6694	4.84182	36.0332	6.11989	46.3063	8.0915	58.2743
0.806445	5.42596	0.260482	1.47404	2.88001	19.6812	3.4868	23.9568	6.47392	46.0262	9.11697	61.0437	1.81525	12.82	4.84157	33.3584	6.12978	42.8873	8.09418	54.0988
0.863824	5.41943	0.288204	1.53726	2.86941	18.2649	3.5142	22.482	6.47617	42.7685	9.12091	56.9636	1.84353	12.0997	4.84138	31.0535	6.14037	39.9519	8.09707	50.4851
0.920955	5.41228	0.316695	1.59749	2.85955	17.0347	3.54214	21.2004	6.47861	39.9444	9.1251	53.3991	1.8731	11.4824	4.84127	29.0468	6.15164	37.4049	8.10016	47.3273
0.977813	5.40446	0.345882	1.65484	2.8505	15.9573	3.57057	20.0768	6.48122	37.4729	9.12953	50.2585	1.90386	10.9483	4.84126	27.2843	6.16358	35.1747	8.10347	44.5445
1.03437	5.39594	0.375702	1.70945	2.84229	15.0069	3.59947	19.084	6.48402	35.2922	9.1342	47.4706	1.9357	10.4824	4.84137	25.7239	6.17615	33.2061	8.10699	42.0737
1.09058	5.38666	0.406091	1.76144	2.83499	14.1632	3.62881	18.2006	6.487	33.3538	9.1391	44.9793	1.96855	10.073	4.8416	24.3331	6.18936	31.4563	8.11072	39.8655
1.14643	5.37657	0.436996	1.81091	2.82863	13.4101	3.65858	17.4098	6.49018	31.6197	9.14423	42.7397	2.00231	9.71077	4.84198	23.0859	6.20319	29.8909	8.11467	37.8803
1.20186	5.36561	0.468365	1.85801	2.82326	12.7347	3.68875	16.6978	6.49355	30.0594	9.14959	40.7158	2.03692	9.38838	4.84253	21.9611	6.2176	28.4827	8.11883	36.0861
1.25684	5.35371	0.500153	1.90284	2.81895	12.1263	3.7193	16.0537	6.49711	28.648	9.15515	38.8779	2.0723	9.09988	4.84326	20.9419	6.2326	27.2094	8.12322	34.4566
1.31131	5.34081	0.532319	1.94552	2.81574	11.5763	3.75022	15.4683	6.50088	27.3655	9.16093	37.2015	2.10839	8.84038	4.8442	20.0142	6.24816	26.0527	8.12783	32.9704
1.36523	5.32682	0.564824	1.98616	2.81369	11.0776	3.7815	14.9341	6.50485	26.195	9.16692	35.6664	2.14512	8.60589	4.84535	19.1664	6.26427	24.9976	8.13266	31.6095
1.41854	5.31167	0.597633	2.02487	2.81286	10.624	3.81311	14.4448	6.50903	25.1226	9.1731	34.2555	2.17761	8.41933	4.84675	18.3888	6.2809	24.0315	8.13772	30.3587
1.47116	5.29526	0.630717	2.06176	2.81332	10.2105	3.84505	13.995	6.51342	24.1365	9.17947	32.9543	2.20563	8.27187	4.8484	17.6731	6.29805	23.1437	8.14301	29.2054
1.52305	5.27748	0.664046	2.09691	2.81515	9.83288	3.87731	13.5802	6.51803	23.2269	9.18603	31.7506	2.22901	8.15723	4.85032	17.0124	6.31569	22.3253	8.14853	28.1386
1.57411	5.25825	0.697596	2.13042	2.8184	9.48746	3.90986	13.1966	6.52286	22.3853	9.19277	30.6339	2.24763	8.0709	4.85254	16.4008	6.33381	21.5684	8.15429	27.1491
1.62428	5.23746	0.731343	2.16238	2.82317	9.17112	3.94271	12.8408	6.52791	21.6043	9.19969	29.5951	2.26138	8.00969	4.85507	15.8332	6.35239	20.8667	8.16028	26.2289
1.67346	5.21498	0.760894	2.18903	2.82954	8.88118	3.97584	12.51	6.5332	20.8779	9.20677	28.6264	2.27021	7.97149	4.85792	15.3051	6.37142	20.2143	8.16652	25.3709
1.72156	5.19074	0.786181	2.2109	2.83646	8.64823	4.00923	12.2018	6.53872	20.2005	9.21401	27.7209	2.28295	7.91786	4.86112	14.8127	6.39088	19.6063	8.17301	24.5692
1.7685	5.1646	0.807153	2.22843	2.84342	8.46306	4.04289	11.9138	6.54448	19.5675	9.22141	26.8727	2.29684	7.8612	4.86468	14.3527	6.41076	19.0384	8.17974	23.8186
1.81418	5.13649	0.823772	2.24195	2.84993	8.31869	4.07679	11.6442	6.55049	18.9746	9.22896	26.0765	2.31582	7.78677	4.86862	13.9221	6.43104	18.5069	8.18672	23.1142
1.8585	5.10633	0.83601	2.25169	2.85559	8.20988	4.11093	11.3914	6.55675	18.4183	9.23665	25.3278	2.33994	7.69672	4.87296	13.5183	6.4517	18.0084	8.19396	22.4522
1.90139	5.07406	0.843852	2.25784	2.86003	8.13276	4.1453	11.1539	6.56326	17.8954	9.24448	24.6223	2.36929	7.59348	4.87771	13.1391	6.47274	17.54	8.20146	21.8287
1.94275	5.03965	0.855134	2.26658	2.86301	8.08465	4.17988	10.9303	6.57004	17.403	9.25245	23.9565	2.40393	7.47961	4.8829	12.7823	6.49413	17.0991	8.20922	21.2407
1.98254	5.00311	0.867412	2.27592	2.86748	8.01717	4.21468	10.7195	6.57708	16.9386	9.26054	23.3272	2.44396	7.35767	4.88853	12.4463	6.51587	16.6834	8.21725	20.6852
2.02068	4.96449	0.884132	2.28839	2.87257	7.94599	4.24969	10.5205	6.5844	16.4999	9.26876	22.7314	2.48424	7.24412	4.89463	12.1293	6.53793	16.2908	8.22555	20.1598
2.05716	4.92386	0.905311	2.30377	2.87992	7.85273	4.28488	10.3322	6.592	16.0849	9.2771	22.1665	2.52473	7.13809	4.90122	11.83	6.56031	15.9194	8.23413	19.6619
2.09196	4.88136	0.930972	2.32182	2.88993	7.74041	4.32026	10.1539	6.59988	15.6919	9.28555	21.6303	2.56541	7.03883	4.9083	11.547	6.583	15.5678	8.24299	19.1897
2.1251	4.83717	0.961135	2.34224	2.9031	7.61261	4.35582	9.9848	6.60806	15.3192	9.29412	21.1205	2.60624	6.94568	4.9159	11.2792	6.60597	15.2342	8.25213	18.7413
2.15663	4.79151	0.99582	2.36472	2.92007	7.47327	4.39155	9.82424	6.61653	14.9653	9.30279	20.6354	2.64719	6.85803	4.92403	11.0255	6.62922	14.9174	8.26157	18.3149
2.1866	4.7446	1.03057	2.38623	2.94164	7.32657	4.42744	9.67158	6.62531	14.6289	9.31157	20.173	2.68823	6.77537	4.93271	10.7849	6.65273	14.6162	8.27129	17.909
2.2151	4.69673	1.06538	2.40683	2.96546	7.19301	4.46348	9.52626	6.63441	14.3089	9.32045	19.732	2.72934	6.69724	4.94196	10.5566	6.67649	14.3295	8.28132	17.5222
2.23882	4.65442	1.10024	2.42656	2.99155	7.07161	4.49968	9.38778	6.64382	14.004	9.32943	19.3109	2.77048	6.62322	4.9518	10.3398	6.70049	14.0562	8.29165	17.1533
2.25827	4.61808	1.13514	2.44546	3.01989	6.96143	4.53601	9.25567	6.65355	13.7133	9.33851	18.9083	2.81163	6.55293	4.96223	10.1338	6.72472	13.7954	8.30229	16.8011
2.27386	4.58791	1.17008	2.46359	3.05045	6.86159	4.57247	9.12951	6.66362	13.4359	9.34768	18.523	2.85277	6.48604	4.97328	9.93785	6.74917	13.5464	8.31325	16.4645
2.28589	4.56402	1.20504	2.48097	3.08317	6.7712	4.60906	9.00891	6.67403	13.1709	9.35695	18.1541	2.89386	6.42226	4.98496	9.7514	6.77382	13.3082	8.32453	16.1426
2.29458	4.54646	1.24003	2.49764	3.11796	6.68943	4.64578	8.89351	6.68479	12.9177	9.3663	17.8004	2.93488	6.3613	4.99729	9.57389	6.79866	13.0804	8.33613	15.8345
2.30007	4.53523	1.27504	2.51364	3.15473	6.6155	4.68261	8.78299	6.6959	12.6754	9.37575	17.4611	2.97581	6.30293	5.01029	9.40479	6.82368	12.8621	8.34806	15.5394
2.30788	4.5191	1.31007	2.52901	3.19334	6.54862	4.71479	8.69042	6.70737	12.4435	9.38529	17.1352	3.01662	6.24691	5.02396	9.24364	6.84887	12.6528	8.36033	15.2565
2.31625	4.50159	1.3451	2.54377	3.23368	6.48809	4.74229	8.61411	6.71921	12.2214	9.39491	16.8221	3.05729	6.19305	5.03833	9.09001	6.87422	12.4519	8.37294	14.9851
2.32745	4.47785	1.38014	2.55795	3.27561	6.43324	4.76507	8.55274	6.73143	12.0085	9.40463	16.521	3.09779	6.14115	5.05341	8.94348	6.89972	12.259	8.3859	14.7245
2.34133	4.44796	1.41518	2.57158	3.31899	6.38346	4.78311	8.50529	6.74403	11.8042	9.41444	16.2313	3.1381	6.09106	5.06713	8.8213	6.92535	12.0736	8.39921	14.4743
2.35774	4.41209	1.45022	2.58468	3.36369	6.33819	4.79639	8.47098	6.75703	11.6082	9.42433	15.9522	3.1782	6.04261	5.07927	8.721	6.95112	11.8952	8.41288	14.2337
2.37651	4.37049	1.48526	2.59729	3.40958	6.29691	4.8049	8.44928	6.77042	11.42	9.43432	15.6833	3.21807	5.99567	5.08962	8.64065	6.977	11.7235	8.42692	14.0024
2.39751	4.32349	1.52029	2.60942	3.45654	6.25917	4.81713	8.41842	6.78422	11.2392	9.44439	15.424	3.25767	5.9501	5.098	8.57872	7.00299	11.5581	8.44132	13.7798
2.41802	4.27743	1.55532	2.6211	3.50444	6.22456	4.83044	8.38534	6.79844	11.0653	9.45456	15.1738	3.297	5.90579	5.10428	8.53406	7.02908	11.3986	8.4561	13.5655
2.43813	4.2324	1.59033	2.63235	3.55319	6.19271	4.84856	8.34107	6.81308	10.8982	9.46482	14.9322	3.33602	5.86263	5.10835	8.50586	7.05526	11.2447	8.47127	13.3591
2.45793	4.18848	1.62533	2.64318	3.60267	6.16329	4.87151	8.28627	6.82815	10.7374	9.47517	14.6989	3.37473	5.82052	5.11426	8.46584	7.08152	11.0962	8.48682	13.1602
2.47748	4.14574	1.66032	2.65362	3.65279	6.13602	4.8993	8.2217	6.84366	10.5826	9.48562	14.4734	3.41309	5.77936	5.12079	8.42303	7.10785	10.9527	8.50276	12.9684
2.49686	4.10423	1.6953	2.66368	3.70347	6.11064	4.93197	8.14822	6.85961	10.4335	9.49616	14.2553	3.45109	5.73909	5.12982	8.36592	7.13425	10.8139	8.5191	12.7834
2.51613	4.06397	1.73026	2.67338	3.75463	6.08692	4.96954	8.0668	6.87601	10.29	9.50681	14.0443	3.48872	5.69961	5.1415	8.2955	7.1607	10.6797	8.53585	12.6049
2.53532	4.02498	1.7652	2.68274	3.8062	6.06466	5.00719	7.9883	6.89288	10.1517	9.51756	13.84	3.52596	5.66087	5.15602	8.21294	7.1872	10.5498	8.553	12.4326
2.5545	3.98727	1.80012	2.69177	3.8581	6.04369	5.04492	7.91258	6.91021	10.0183	9.5284	13.6422	3.56278	5.6228	5.1736	8.1196	7.21374	10.4241	8.57056	12.2661
2.57369	3.95083	1.83502	2.70048	3.91029	6.02384	5.08273	7.8395	6.92801	9.88975	9.53936	13.4505	3.59919	5.58534	5.19451	8.01695	7.24031	10.3022	8.58854	12.1053
2.59294	3.91566	1.8699	2.7089	3.96269	6.00497	5.12063	7.76894	6.94629	9.76576	9.55042	13.2648	3.63515	5.54846	5.21622	7.91886	7.26691	10.184	8.60694	11.9499
2.61226	3.88173	1.90476	2.71702	4.01527	5.98696	5.15861	7.70077	6.96506	9.64613	9.56159	13.0846	3.67068	5.51209	5.23872	7.82511	7.29354	10.0694	8.62577	11.7997
2.63169	3.84902	1.9396	2.72487	4.06796	5.96969	5.19667	7.63489	6.98432	9.53069	9.57288	12.9098	3.70574	5.47621	5.26201	7.7355	7.32018	9.95815	8.64502	11.6543
2.65125	3.81751	1.97442	2.73245	4.12072	5.95305	5.23483	7.57118	7.00408	9.41927	9.58427	12.7402	3.74035	5.44078	5.2861	7.64983	7.34684	9.85014	8.66471	11.5138
2.67096	3.78717	2.00922	2.73978	4.17351	5.93697	5.27308	7.50957	7.02434	9.31169	9.59579	12.5755	3.77448	5.40578	5.31098	7.56792	7.3735	9.74522	8.68483	11.3777
2.69082	3.75797	2.04399	2.74687	4.22628	5.92135	5.31144	7.44996	7.04511	9.2078	9.60743	12.4156	3.80815	5.37116	5.33665	7.48959	7.40017	9.64324	8.70539	11.246
2.71086	3.72987	2.07873	2.75372	4.27899	5.90611	5.3499	7.39227	7.06362	9.12016	9.61919	12.2602	3.84133	5.33693	5.36309	7.41468	7.42684	9.54409	8.72639	11.1185
2.73108	3.70285	2.11346	2.76035	4.33161	5.89119	5.38847	7.33642	7.07971	9.04751	9.63107	12.1092	3.87405	5.30305	5.39032	7.34301	7.4535	9.44764	8.74783	10.995
2.7515	3.67686	2.14816	2.76676	4.38409	5.87652	5.42717	7.28236	7.09324	8.98881	9.64309	11.9624	3.90629	5.26952	5.4183	7.27443	7.48017	9.35378	8.76972	10.8753
2.77212	3.65187	2.18283	2.77297	4.43641	5.86204	5.466	7.23002	7.10407	8.94327	9.65524	11.8196	3.93806	5.23633	5.44703	7.2088	7.50682	9.26241	8.79204	10.7594
2.79295	3.62784	2.21748	2.77898	4.48851	5.84769	5.50499	7.17934	7.11211	8.91026	9.66752	11.6807	3.96937	5.20347	5.47649	7.14598	7.53005	9.18474	8.81481	10.647
2.81398	3.60476	2.25211	2.7848	4.54037	5.83343	5.54413	7.13027	7.11729	8.88935	9.67994	11.5455	4.00022	5.17093	5.50668	7.08581	7.54985	9.11992	8.83803	10.538
2.83523	3.58257	2.28671	2.79043	4.59194	5.8192	5.58344	7.08276	7.12479	8.85956	9.6925	11.4139	4.03062	5.13871	5.53756	7.02818	7.56622	9.06725	8.86168	10.4322
2.8567	3.56124	2.32129	2.79589	4.64321	5.80496	5.62295	7.03677	7.133	8.82757	9.7052	11.2858	4.06059	5.10682	5.56912	6.97295	7.57916	9.0262	8.88578	10.3297
2.87838	3.54075	2.35584	2.80119	4.69412	5.79066	5.66267	6.99225	7.14428	8.78467	9.71806	11.161	4.09013	5.07525	5.60134	6.92001	7.58868	8.99633	8.91032	10.2302
2.90028	3.52105	2.39037	2.80631	4.74464	5.77627	5.70261	6.94919	7.15872	8.73142	9.73106	11.0394	4.11926	5.044	5.6342	6.86923	7.59477	8.97736	8.9353	10.1336
2.9224	3.50213	2.42487	2.81129	4.79475	5.76175	5.74279	6.90753	7.17644	8.66848	9.74422	10.9209	4.14799	5.01309	5.66766	6.8205	7.60352	8.95028	8.96071	10.0398
2.94474	3.48395	2.45935	2.81611	4.8444	5.74706	5.78324	6.86725	7.19761	8.59661	9.75754	10.8055	4.17634	4.98252	5.70171	6.77371	7.61304	8.9211	8.98655	9.94874
2.96729	3.46647	2.4938	2.82078	4.89357	5.73217	5.82398	6.82832	7.22239	8.51669	9.77101	10.6929	4.20432	4.95229	5.73632	6.72876	7.62598	8.88184	9.01283	9.8603
2.99005	3.44968	2.52823	2.82532	4.94222	5.71706	5.86502	6.79071	7.2477	8.43939	9.78466	10.5831	4.23195	4.92241	5.77147	6.68555	7.64234	8.83286	9.03952	9.77437
3.01303	3.43354	2.56264	2.82972	4.99032	5.70169	5.90638	6.75441	7.27353	8.3646	9.79847	10.4761	4.25925	4.89289	5.80712	6.64398	7.66214	8.77462	9.06664	9.69087
3.03622	3.41802	2.59702	2.83399	5.03784	5.68603	5.94809	6.71937	7.29989	8.29224	9.81245	10.3716	4.28623	4.86373	5.84324	6.60396	7.68536	8.70766	9.09417	9.60971
3.05961	3.40311	2.63138	2.83814	5.08475	5.67008	5.99017	6.6856	7.32677	8.22222	9.8266	10.2697	4.31292	4.83494	5.87981	6.56541	7.71202	8.63256	9.12211	9.53081
3.08321	3.38878	2.66571	2.84216	5.13103	5.65381	6.03264	6.65304	7.35418	8.15445	9.84094	10.1703	4.33932	4.80652	5.91681	6.52823	7.73869	8.55926	9.14679	9.46382
3.10701	3.375	2.70002	2.84607	5.17665	5.6372	6.0755	6.62169	7.3821	8.08884	9.85546	10.0732	4.36546	4.77849	5.95419	6.49236	7.76538	8.48771	9.16806	9.40798
3.13101	3.36175	2.7343	2.84987	5.2216	5.62024	6.11879	6.59152	7.41053	8.02532	9.87016	9.97841	4.39136	4.75085	5.99194	6.4577	7.7921	8.41785	9.18582	9.36266
3.1552	3.34901	2.76856	2.85355	5.26584	5.60294	6.16251	6.56251	7.43948	7.96381	9.88506	9.88587	4.41703	4.7236	6.03002	6.4242	7.81885	8.34963	9.19997	9.32736
3.17959	3.33676	2.8028	2.85714	5.30937	5.58527	6.20668	6.53462	7.46893	7.90424	9.90015	9.79548	4.44249	4.69675	6.0684	6.39177	7.84564	8.28301	9.21043	9.3017
3.20416	3.32497	2.83702	2.86062	5.35217	5.56724	6.2513	6.50783	7.49888	7.84653	9.91543	9.7072	4.46776	4.6703	6.10706	6.36036	7.87248	8.21793	9.21715	9.28541
3.22891	3.31364	2.87121	2.864	5.39423	5.54885	6.29639	6.48211	7.52932	7.79061	9.92892	9.63193	4.49285	4.64426	6.14596	6.3299	7.89938	8.15436	9.22684	9.26216
3.25385	3.30274	2.90538	2.86729	5.43556	5.53011	6.34194	6.45743	7.56025	7.73643	9.94054	9.56896	4.51778	4.61863	6.18509	6.30034	7.92634	8.09225	9.23742	9.23713
3.27896	3.29225	2.93952	2.87049	5.47613	5.51102	6.38796	6.43375	7.59166	7.68392	9.95023	9.51769	4.54257	4.59341	6.22441	6.27161	7.95338	8.03157	9.25189	9.20347
3.30424	3.28215	2.97365	2.8736	5.51597	5.49161	6.43444	6.41105	7.62355	7.63301	9.95796	9.47767	4.56722	4.5686	6.2639	6.24366	7.9805	7.97228	9.27032	9.16153
3.3297	3.27244	3.00775	2.87663	5.55506	5.47187	6.48139	6.38928	7.6559	7.58364	9.96367	9.44853	4.59176	4.5442	6.30352	6.21644	8.00772	7.91435	9.29279	9.11171
3.35532	3.26309	3.04183	2.87957	5.59342	5.45184	6.52878	6.36841	7.6887	7.53577	9.96734	9.43	4.61619	4.52022	6.34325	6.1899	8.03505	7.85774	9.3194	9.05451
3.3811	3.25409	3.07589	2.88243	5.63106	5.43152	6.57662	6.3484	7.72196	7.48934	9.97263	9.40354	4.64054	4.49665	6.38308	6.164	8.06249	7.80243	9.35027	8.99046
3.40704	3.24543	3.10992	2.88522	5.66799	5.41095	6.62488	6.32921	7.75566	7.44429	9.97841	9.37499	4.66481	4.4735	6.42296	6.13869	8.09006	7.74838	9.3815	8.92805
3.43313	3.23708	3.14394	2.88793	5.70422	5.39014	6.67356	6.3108	7.78979	7.40057	9.98632	9.33655	4.68901	4.45075	6.46288	6.11393	8.11778	7.69557	9.41306	8.86723
3.45938	3.22905	3.17793	2.89057	5.73979	5.36913	6.72262	6.29313	7.82435	7.35814	9.99639	9.28853	4.71316	4.42842	6.50281	6.08968	8.14565	7.64397	9.44495	8.80794
3.48577	3.22131	3.21191	2.89313	5.7747	5.34792	6.77207	6.27616	7.85933	7.31694	10.0087	9.23135	4.73726	4.40649	6.54274	6.06591	8.17368	7.59355	9.47717	8.75013
3.51231	3.21386	3.24586	2.89563	5.80897	5.32655	6.82186	6.25984	7.89472	7.27695			4.76133	4.38496	6.58262	6.04257	8.20189	7.5443	9.5097	8.69374
3.53899	3.20668	3.27979	2.89807	5.84263	5.30504	6.87198	6.24414	7.9305	7.2381			4.78538	4.36384	6.62246	6.01964	8.23029	7.49618	9.54253	8.63873
3.5658	3.19976	3.3137	2.90044	5.87571	5.28343	6.92241	6.22902	7.96669	7.20037			4.80941	4.34311	6.66222	5.99709	8.25889	7.44918	9.57567	8.58505
3.59275	3.19309	3.34759	2.90275	5.90822	5.26172	6.97311	6.21444	8.00325	7.16371			4.83343	4.32278	6.70187	5.97488	8.28771	7.40328	9.60909	8.53265
3.61983	3.18667	3.38146	2.90499	5.9402	5.23995	7.02407	6.20036	8.0402	7.12809			4.85746	4.30283	6.74141	5.95299	8.31675	7.35845	9.64279	8.48149
3.64704	3.18047	3.41531	2.90719	5.97166	5.21814	7.07525	6.18674	8.07752	7.09346			4.88149	4.28327	6.78081	5.93139	8.34602	7.31467	9.67677	8.43153
3.67437	3.1745	3.44914	2.90932	6.00263	5.19632	7.12664	6.17355	8.11521	7.05981			4.90554	4.26408	6.82006	5.91006	8.37555	7.27193	9.71101	8.38272
3.70182	3.16874	3.48295	2.9114	6.03313	5.1745	7.17819	6.16075	8.15325	7.02708			4.92961	4.24527	6.85912	5.88897	8.40533	7.2302	9.7455	8.33503
3.72939	3.16319	3.51674	2.91343	6.0632	5.1527	7.22989	6.14831	8.19165	6.99527			4.9537	4.22684	6.898	5.8681	8.43538	7.18946	9.78024	8.28842
3.75707	3.15783	3.55052	2.9154	6.09284	5.13095	7.2817	6.13619	8.2304	6.96433			4.97783	4.20876	6.93666	5.84744	8.46571	7.14971	9.81521	8.24285
3.78487	3.15266	3.58427	2.91733	6.1221	5.10926	7.33361	6.12436	8.26949	6.93423			5.002	4.19104	6.97511	5.82695	8.49633	7.11091	9.85042	8.19829
3.81278	3.14768	3.61801	2.9192	6.15098	5.08765	7.38557	6.11279	8.30893	6.90496			5.02621	4.17368	7.01331	5.80664	8.52725	7.07305	9.88584	8.1547
3.84079	3.14287	3.65172	2.92103	6.17951	5.06613	7.43756	6.10146	8.3487	6.87649			5.05047	4.15666	7.05125	5.78647	8.55847	7.03611	9.92148	8.11205
3.86891	3.13823	3.68542	2.92282	6.2077	5.04472	7.48957	6.09032	8.38881	6.84879			5.07478	4.13998	7.08893	5.76645	8.59	7.00007	9.95733	8.07031
3.89712	3.13375	3.7191	2.92455	6.23559	5.02343	7.54154	6.07936	8.42926	6.82184			5.09915	4.12364	7.12633	5.74654	8.62186	6.96492	9.99336	8.02945
3.92544	3.12943	3.75277	2.92625	6.26319	5.00227	7.59347	6.06855	8.47004	6.79563			5.12358	4.10763	7.16344	5.72674	8.65404	6.93063	10.0296	7.98944
3.95385	3.12525	3.78641	2.9279	6.29052	4.98127	7.64532	6.05786	8.51115	6.77014			5.14807	4.09194	7.20025	5.70705	8.68655	6.8972		
3.98236	3.12122	3.82004	2.92952	6.31759	4.96041	7.69706	6.04727	8.5526	6.74534			5.17262	4.07657	7.23674	5.68744	8.71939	6.86459		
