S0		A0		S1		S2		S3		S4		A1		A2		A3		A4		A5	
2000  Points		1994  Points		1752  Points		1373  Points		906  Points		724  Points		1851  Points		1595  Points		1114  Points		646  Points		446  Points	
Freq (MHz)	Vph (m/ms)	Freq (MHz)	Vph (m/ms)	Freq (MHz)	Vph (m/ms)	Freq (MHz)	Vph (m/ms)	Freq (MHz)	Vph (m/ms)	Freq (MHz)	Vph (m/ms)	Freq (MHz)	Vph (m/ms)	Freq (MHz)	Vph (m/ms)	Freq (MHz)	Vph (m/ms)	Freq (MHz)	Vph (m/ms)	Freq (MHz)	Vph (m/ms)
0.00188358	1.0046	0.000749733	0.0369019	0.549999	440.321	0.675002	732.037	1.1	632.38	1.65	4907.31	0.275004	187.152	0.825	2518.75	1.35	767.42	1.375	2817.4	1.925	2883.17
0.00382477	1.00455	0.000898564	0.040386	0.549993	172.867	0.675015	236.467	1.1	299.568	1.65	727.277	0.275024	80.8437	0.825001	365.037	1.35	365.69	1.37501	568.057	1.925	740.336
0.00576603	1.00454	0.00106078	0.0438666	0.549982	107.543	0.675043	141.013	1.10001	196.273	1.65	392.742	0.275059	51.563	0.825002	196.778	1.35	240.036	1.37502	315.875	1.925	424.695
0.00770721	1.00453	0.00123606	0.0473325	0.549966	78.0471	0.675085	100.465	1.10001	145.949	1.65	269.004	0.27511	37.8578	0.825005	134.694	1.34999	178.65	1.37504	218.761	1.925	297.75
0.00964819	1.0045	0.00142459	0.0507931	0.549945	61.2473	0.675141	78.0321	1.10002	116.164	1.65	204.557	0.275176	29.9123	0.825009	102.389	1.34999	142.266	1.37506	167.322	1.92501	229.231
0.0115891	1.00447	0.00162632	0.0542478	0.54992	50.3977	0.675211	63.7918	1.10002	96.4766	1.65001	165.021	0.275258	24.7269	0.825014	82.5835	1.34998	118.195	1.37509	135.47	1.92501	186.348
0.0135297	1.00444	0.00184102	0.0576906	0.549889	42.8125	0.675295	53.9498	1.10003	82.4954	1.65001	138.293	0.275355	21.0767	0.825019	69.1982	1.34998	101.09	1.37513	113.806	1.92501	156.981
0.0154702	1.0044	0.00206877	0.0611258	0.549853	37.211	0.675393	46.7413	1.10004	72.0537	1.65001	119.016	0.275468	18.3683	0.825026	59.5469	1.34997	88.3103	1.37518	98.1178	1.92502	135.611
0.0174103	1.00435	0.00230946	0.0645518	0.549812	32.9049	0.675505	41.2343	1.10005	63.9586	1.65002	104.456	0.275596	16.2791	0.825034	52.2585	1.34996	78.3988	1.37523	86.2316	1.92502	119.361
0.0193503	1.0043	0.00256289	0.0679642	0.549766	29.4914	0.675631	36.8903	1.10007	57.4989	1.65002	93.0703	0.275739	14.6188	0.825043	46.5598	1.34995	70.4874	1.37528	76.9151	1.92503	106.59
0.0212899	1.00424	0.00282916	0.0713678	0.549716	26.7188	0.675771	33.3761	1.10008	52.2245	1.65003	83.9226	0.275898	13.2679	0.825053	41.9819	1.34994	64.0263	1.37535	69.4163	1.92503	96.2868
0.0232292	1.00418	0.00310794	0.0747561	0.549661	24.4222	0.675924	30.475	1.1001	47.8366	1.65003	76.4123	0.276072	12.1473	0.825064	38.2238	1.34993	58.6502	1.37542	63.2506	1.92504	87.8004
0.0251679	1.00411	0.00339941	0.078135	0.549601	22.4886	0.676092	28.0395	1.10011	44.129	1.65004	70.1359	0.276261	11.2031	0.825076	35.0834	1.34992	54.1068	1.3755	58.0917	1.92505	80.6887
0.0271064	1.00404	0.00370336	0.0815011	0.549536	20.8382	0.676273	25.9659	1.10013	40.955	1.65004	64.8123	0.276466	10.3966	0.825089	32.4199	1.34991	50.2166	1.37558	53.7115	1.92506	74.6429
0.0290443	1.00395	0.00401965	0.0848529	0.549467	19.413	0.676467	24.1793	1.10015	38.207	1.65005	60.2399	0.276685	9.69992	0.825103	30.1324	1.34989	46.8483	1.37567	49.9462	1.92506	69.44
0.0309819	1.00387	0.00434825	0.0881919	0.549394	18.1698	0.676676	22.624	1.10017	35.8048	1.65006	56.2702	0.27692	9.09216	0.825118	28.1465	1.34988	43.9033	1.37577	46.6749	1.92507	64.9152
0.0329189	1.00378	0.00468914	0.0915187	0.549316	17.0759	0.676897	21.2579	1.1002	33.6869	1.65006	52.7914	0.277169	8.55739	0.825134	26.4063	1.34987	41.3066	1.37587	43.8064	1.92508	60.9441
0.0348553	1.00368	0.00504197	0.0948283	0.549233	16.1058	0.677132	20.0485	1.10022	31.8056	1.65007	49.7178	0.277434	8.08327	0.825151	24.8689	1.34985	38.9999	1.37598	41.2705	1.92509	57.4308
0.0367911	1.00358	0.00540687	0.0981248	0.549147	15.2396	0.677381	18.9705	1.10025	30.1235	1.65008	46.9823	0.277713	7.6601	0.82517	23.5007	1.34984	36.9371	1.3761	39.0127	1.92511	54.3006
0.0387264	1.00347	0.00578356	0.101405	0.549056	14.4615	0.677643	18.0034	1.10027	28.6105	1.65009	44.5323	0.278007	7.28015	0.825189	22.2752	1.34982	35.0815	1.37622	36.9897	1.92512	51.4941
0.0406611	1.00336	0.00617201	0.104669	0.548961	13.7587	0.677917	17.1312	1.1003	27.2422	1.6501	42.3251	0.278315	6.93716	0.825209	21.1714	1.3498	33.4033	1.37635	35.1665	1.92513	48.9634
0.0425949	1.00324	0.00657216	0.107918	0.548862	13.1207	0.678205	16.3405	1.10033	25.999	1.65011	40.3264	0.278639	6.62605	0.825231	20.1718	1.34978	31.8784	1.37649	33.5151	1.92514	46.6699
0.0445282	1.00311	0.0069839	0.111152	0.54876	12.539	0.678506	15.6204	1.10036	24.8644	1.65012	38.508	0.278976	6.3426	0.825253	19.2624	1.34977	30.4865	1.37663	32.0123	1.92516	44.5816
0.0464607	1.00298	0.00740701	0.114368	0.548653	12.0064	0.67882	14.962	1.10039	23.8247	1.65013	36.8466	0.279328	6.08333	0.825276	18.4316	1.34975	29.2111	1.37677	30.6388	1.92517	42.6723
0.0483924	1.00285	0.0078413	0.117566	0.548543	11.517	0.679147	14.3576	1.10043	22.8686	1.65014	35.3226	0.279694	5.84529	0.825301	17.6695	1.34973	28.0381	1.37693	29.3787	1.92519	40.9198
0.0503233	1.0027	0.00828694	0.120749	0.548429	11.0656	0.679486	13.801	1.10046	21.9864	1.65015	33.9197	0.280075	5.62603	0.825326	16.968	1.34971	26.9556	1.37709	28.2186	1.9252	39.3057
0.0522533	1.00256	0.00874347	0.123912	0.548312	10.648	0.679838	13.2866	1.1005	21.1697	1.65017	32.624	0.280469	5.42342	0.825353	16.3202	1.34969	25.9535	1.37725	27.147	1.92522	37.8141
0.0541825	1.0024	0.00921104	0.127059	0.548192	10.2606	0.680203	12.8099	1.10054	20.4117	1.65018	31.4237	0.280878	5.23566	0.825381	15.72	1.34967	25.0233	1.37742	26.1541	1.92523	36.4316
0.0561108	1.00225	0.0096894	0.130187	0.548068	9.90022	0.680579	12.3669	1.10058	19.7061	1.65019	30.3086	0.2813	5.06122	0.825409	15.1625	1.34965	24.1574	1.3776	25.2316	1.92525	35.1466
0.058038	1.00208	0.0101783	0.133295	0.547941	9.56406	0.680968	11.9542	1.10062	19.0477	1.65021	29.27	0.281736	4.89873	0.825439	14.6432	1.34963	23.3494	1.37778	24.3723	1.92527	33.9493
0.0599644	1.00191	0.010678	0.136386	0.547811	9.24979	0.68137	11.5688	1.10066	18.432	1.65022	28.3002	0.282185	4.74704	0.82547	14.1584	1.34961	22.5936	1.37797	23.5699	1.92529	32.8308
0.0618897	1.00174	0.0111879	0.139458	0.547679	8.95534	0.681783	11.2081	1.1007	17.8549	1.65024	27.3926	0.282649	4.60512	0.825502	13.7047	1.34959	21.8853	1.37816	22.8189	1.92531	31.7837
0.0638141	1.00155	0.0117081	0.142509	0.547543	8.67888	0.682208	10.8697	1.10075	17.3129	1.65025	26.5415	0.283125	4.47208	0.825535	13.2792	1.34957	21.22	1.37836	22.1146	1.92533	30.8014
0.0657372	1.00137	0.0122386	0.145543	0.547405	8.41881	0.682645	10.5518	1.10079	16.8029	1.65027	25.7417	0.283615	4.34712	0.825569	12.8794	1.34955	20.5939	1.37857	21.4528	1.92535	29.8781
0.0676594	1.00117	0.0127791	0.148556	0.547265	8.17372	0.683094	10.2525	1.10084	16.3222	1.65028	24.9887	0.284117	4.22954	0.825604	12.503	1.34953	20.0037	1.37878	20.8297	1.92537	29.0084
0.0695803	1.00097	0.0133295	0.15155	0.547122	7.94235	0.683554	9.97021	1.10089	15.8682	1.6503	24.2785	0.284633	4.11873	0.82564	12.148	1.34951	19.4464	1.379	20.242	1.92539	28.1881
0.0715	1.00077	0.0138897	0.154524	0.546977	7.72357	0.684026	9.70357	1.10094	15.4389	1.65032	23.6076	0.285162	4.01413	0.825678	11.8127	1.34949	18.9192	1.37922	19.6868	1.92542	27.4128
0.0734186	1.00056	0.0144595	0.157478	0.54683	7.51639	0.684509	9.45133	1.10099	15.0322	1.65034	22.9728	0.285703	3.91524	0.825716	11.4954	1.34948	18.4199	1.37945	19.1615	1.92544	26.6791
0.0753358	1.00034	0.0150388	0.160411	0.546681	7.3199	0.685004	9.21234	1.10105	14.6465	1.65036	22.3712	0.286257	3.82163	0.825756	11.1948	1.34946	17.9463	1.37968	18.6637	1.92546	25.9837
0.0772518	1.00012	0.0156275	0.163324	0.54653	7.1333	0.685509	8.98561	1.1011	14.2802	1.65037	21.8004	0.286824	3.73288	0.825796	10.9095	1.34944	17.4964	1.37992	18.1914	1.92549	25.3236
0.0791665	0.999892	0.0162255	0.166216	0.546377	6.95586	0.686026	8.77022	1.10116	13.9317	1.65039	21.258	0.287403	3.64865	0.825838	10.6385	1.34942	17.0684	1.38016	17.7426	1.92551	24.6962
0.0810798	0.999657	0.0168326	0.169087	0.546223	6.78692	0.686553	8.56535	1.10121	13.5999	1.65041	20.742	0.287994	3.5686	0.825881	10.3806	1.3494	16.661	1.38041	17.3156	1.92554	24.0993
0.0829916	0.999417	0.0174486	0.171938	0.546067	6.62589	0.687091	8.37026	1.10127	13.2836	1.65043	20.2504	0.288597	3.49245	0.825925	10.135	1.34938	16.2725	1.38067	16.9089	1.92556	23.5305
0.0849022	0.999171	0.0180736	0.174768	0.54591	6.47222	0.68764	8.18427	1.10133	12.9818	1.65046	19.7816	0.289212	3.41991	0.82597	9.90073	1.34936	15.9017	1.38093	16.5211	1.92559	22.9879
0.0868111	0.998919	0.0187072	0.177577	0.545752	6.32542	0.688199	8.00677	1.1014	12.6933	1.65048	19.334	0.289839	3.35075	0.826016	9.67712	1.34935	15.5474	1.38119	16.1508	1.92562	22.4699
0.0887185	0.99866	0.0193496	0.180366	0.545593	6.18504	0.688769	7.83719	1.10146	12.4175	1.6505	18.9063	0.290477	3.28475	0.826064	9.46342	1.34933	15.2086	1.38146	15.797	1.92565	21.9747
0.0906245	0.998396	0.0200003	0.183133	0.545432	6.05066	0.689349	7.67502	1.10152	12.1535	1.65052	18.4971	0.291127	3.2217	0.826112	9.25899	1.34931	14.8842	1.38173	15.4586	1.92568	21.5008
0.0925289	0.998127	0.0206593	0.185878	0.545272	5.92193	0.689939	7.5198	1.10159	11.9004	1.65054	18.1053	0.291788	3.16141	0.826162	9.06324	1.3493	14.5733	1.38202	15.1345	1.92571	21.047
0.0944316	0.99785	0.0213268	0.188604	0.54511	5.79847	0.690539	7.37108	1.10166	11.6578	1.65057	17.7297	0.292461	3.10371	0.826213	8.87564	1.34928	14.2752	1.3823	14.8239	1.92574	20.612
0.0963327	0.997567	0.0220021	0.191307	0.544948	5.67999	0.69115	7.22848	1.10173	11.4249	1.65059	17.3694	0.293145	3.04845	0.826264	8.69567	1.34927	13.9891	1.38259	14.526	1.92577	20.1946
0.0982321	0.997279	0.0226854	0.193989	0.544785	5.56618	0.69177	7.09164	1.1018	11.2011	1.65062	17.0234	0.29384	2.99547	0.826317	8.52289	1.34926	13.7141	1.38289	14.2399	1.9258	19.7938
0.10013	0.996985	0.0233767	0.19665	0.544623	5.45677	0.692399	6.9602	1.10187	10.986	1.65064	16.691	0.294545	2.94465	0.826372	8.35688	1.34924	13.4498	1.38319	13.9651	1.92583	19.4087
0.102026	0.996684	0.0240756	0.19929	0.54446	5.35152	0.693038	6.83387	1.10194	10.7791	1.65067	16.3714	0.295261	2.89587	0.826427	8.19724	1.34923	13.1955	1.38349	13.7009	1.92586	19.0382
0.10392	0.996377	0.0247821	0.201908	0.544297	5.25019	0.693687	6.71236	1.10202	10.5798	1.65069	16.0638	0.295988	2.849	0.826484	8.04362	1.34922	12.9506	1.3838	13.4466	1.9259	18.6816
0.105812	0.996063	0.0254961	0.204506	0.544134	5.15258	0.694345	6.5954	1.10209	10.3878	1.65072	15.7675	0.296725	2.80394	0.826541	7.89568	1.34921	12.7147	1.38411	13.2018	1.92593	18.3382
0.107702	0.995745	0.0262174	0.207081	0.543972	5.05847	0.695012	6.48274	1.10217	10.2027	1.65075	15.482	0.297473	2.76059	0.8266	7.75312	1.3492	12.4872	1.38443	12.9658	1.92596	18.0072
0.109591	0.995419	0.0269459	0.209635	0.54381	4.96769	0.695689	6.37415	1.10225	10.0241	1.65078	15.2066	0.298231	2.71886	0.82666	7.61564	1.34919	12.2677	1.38476	12.7383	1.926	17.6879
0.111477	0.995086	0.0276816	0.212169	0.543648	4.88007	0.696374	6.26942	1.10233	9.85171	1.6508	14.9409	0.298998	2.67867	0.826722	7.48298	1.34918	12.0557	1.38509	12.5188	1.92604	17.3798
0.113362	0.994748	0.0284242	0.214681	0.543487	4.79544	0.697069	6.16835	1.10241	9.68517	1.65083	14.6843	0.299776	2.63993	0.826784	7.3549	1.34917	11.851	1.38542	12.3068	1.92607	17.0823
0.115244	0.994404	0.0291739	0.217173	0.543327	4.71365	0.697772	6.07076	1.10249	9.5242	1.65086	14.4364	0.300563	2.60257	0.826848	7.23115	1.34917	11.6532	1.38576	12.1021	1.92611	16.7947
0.117124	0.994053	0.0299301	0.219643	0.543168	4.63457	0.698484	5.97647	1.10258	9.36853	1.65089	14.1968	0.30136	2.56652	0.826913	7.11153	1.34916	11.4618	1.3861	11.9042	1.92615	16.5167
0.119002	0.993694	0.030693	0.222092	0.543009	4.55806	0.699204	5.88532	1.10267	9.2179	1.65092	13.9649	0.302166	2.53172	0.826979	6.99583	1.34916	11.2766	1.38645	11.7128	1.92619	16.2478
0.120879	0.993331	0.0314624	0.22452	0.542852	4.484	0.699933	5.79716	1.10275	9.07208	1.65095	13.7406	0.302982	2.49811	0.827046	6.88386	1.34915	11.0973	1.3868	11.5276	1.92622	15.9875
0.122752	0.992961	0.0322384	0.226927	0.542696	4.41228	0.700671	5.71185	1.10284	8.93083	1.65098	13.5233	0.303807	2.46562	0.827114	6.77545	1.34915	10.9237	1.38716	11.3482	1.92626	15.7355
0.124624	0.992584	0.0330205	0.229314	0.542542	4.34279	0.701417	5.62924	1.10293	8.79394	1.65101	13.3129	0.304641	2.43421	0.827184	6.67042	1.34915	10.7554	1.38752	11.1745	1.92631	15.4913
0.126493	0.9922	0.0338088	0.231679	0.542389	4.27543	0.702171	5.54923	1.10303	8.66122	1.65105	13.1089	0.305483	2.40383	0.827255	6.56863	1.34915	10.5922	1.38789	11.0062	1.92635	15.2545
0.12836	0.99181	0.0346033	0.234024	0.542237	4.21011	0.702933	5.47169	1.10312	8.53248	1.65108	12.911	0.306335	2.37442	0.827327	6.46993	1.34915	10.4339	1.38826	10.8429	1.92639	15.0249
0.130225	0.991413	0.0354037	0.236348	0.542088	4.14672	0.703703	5.3965	1.10321	8.40754	1.65111	12.7191	0.307195	2.34595	0.827401	6.37417	1.34915	10.2802	1.38863	10.6846	1.92643	14.8021
0.132087	0.99101	0.0362101	0.238653	0.54194	4.0852	0.704481	5.32357	1.10331	8.28624	1.65115	12.5328	0.308064	2.31837	0.827476	6.28123	1.34915	10.1311	1.38901	10.5309	1.92647	14.5859
0.133947	0.9906	0.0370221	0.240936	0.541794	4.02546	0.705267	5.2528	1.10341	8.16842	1.65118	12.3518	0.308942	2.29165	0.827552	6.19099	1.34915	9.98618	1.3894	10.3817	1.92652	14.3759
0.135804	0.990183	0.0378399	0.243199	0.54165	3.96743	0.70606	5.1841	1.10351	8.05394	1.65122	12.1761	0.309713	2.26902	0.827629	6.10333	1.34916	9.84539	1.38979	10.2368	1.92656	14.1718
0.137658	0.98976	0.0386631	0.245442	0.541509	3.91103	0.706861	5.11737	1.10361	7.94265	1.65125	12.0053	0.310375	2.25021	0.827708	6.01815	1.34916	9.70851	1.39018	10.096	1.92661	13.9735
0.13951	0.989329	0.0394919	0.247665	0.54137	3.8562	0.70767	5.05254	1.10371	7.83443	1.65129	11.8392	0.310927	2.23497	0.827787	5.93533	1.34917	9.5754	1.39058	9.95913	1.92665	13.7807
0.14136	0.988893	0.0403261	0.249868	0.541233	3.80288	0.708486	4.98952	1.10382	7.72914	1.65132	11.6777	0.311364	2.22312	0.827868	5.85479	1.34918	9.4459	1.39098	9.82601	1.9267	13.5931
0.143207	0.988449	0.0411656	0.252051	0.541098	3.751	0.70931	4.92825	1.10392	7.62668	1.65136	11.5205	0.311688	2.21451	0.827951	5.77643	1.34918	9.31986	1.39138	9.6965	1.92674	13.4106
0.145051	0.987997	0.0420101	0.254214	0.540967	3.70052	0.710141	4.86865	1.10403	7.52692	1.6514	11.3675	0.311895	2.20905	0.828035	5.70016	1.34919	9.19715	1.39179	9.57047	1.92679	13.233
0.146892	0.98754	0.0428597	0.256358	0.540838	3.65137	0.710979	4.81066	1.10414	7.42977	1.65144	11.2185	0.312194	2.20127	0.82812	5.6259	1.3492	9.07764	1.39221	9.44778	1.92684	13.06
0.14873	0.987075	0.0437143	0.258482	0.540712	3.6035	0.711824	4.75422	1.10425	7.33513	1.65148	11.0734	0.31252	2.1929	0.828206	5.55358	1.34922	8.96121	1.39263	9.32829	1.92689	12.8914
0.150566	0.986603	0.0445739	0.260587	0.540588	3.55687	0.712676	4.69926	1.10436	7.24289	1.65152	10.932	0.312964	2.18165	0.828294	5.48311	1.34923	8.84774	1.39305	9.21188	1.92694	12.7272
0.152398	0.986125	0.0454383	0.262673	0.540468	3.51143	0.713536	4.64572	1.10447	7.15298	1.65156	10.7942	0.313529	2.16765	0.828383	5.41444	1.34924	8.73711	1.39348	9.09844	1.92699	12.5671
0.154228	0.985639	0.0463073	0.264738	0.540351	3.46714	0.714402	4.59356	1.10459	7.06529	1.6516	10.6598	0.314216	2.15105	0.828473	5.34748	1.34926	8.62922	1.39391	8.98785	1.92704	12.4111
0.156055	0.985147	0.047181	0.266786	0.540238	3.42395	0.715275	4.54273	1.1047	6.97976	1.65164	10.5288	0.315027	2.13202	0.828565	5.28219	1.34928	8.52398	1.39435	8.88001	1.92709	12.2588
0.157878	0.984646	0.0480593	0.268815	0.540127	3.38183	0.716155	4.49317	1.10482	6.8963	1.65168	10.4009	0.315965	2.11076	0.828658	5.21849	1.34929	8.42128	1.39479	8.77482	1.92714	12.1103
0.159699	0.984139	0.0489418	0.270824	0.540021	3.34074	0.717041	4.44484	1.10494	6.81484	1.65172	10.2761	0.316911	2.0901	0.828753	5.15633	1.34931	8.32104	1.39523	8.67219	1.9272	11.9653
0.161516	0.983625	0.0498289	0.272815	0.539917	3.30065	0.717934	4.39769	1.10506	6.7353	1.65176	10.1543	0.317863	2.07	0.828849	5.09566	1.34933	8.22317	1.39568	8.57201	1.92725	11.8238
0.16333	0.983103	0.0507203	0.274788	0.539818	3.26151	0.718834	4.35169	1.10518	6.65763	1.65181	10.0353	0.318823	2.05044	0.828946	5.03642	1.34936	8.12758	1.39613	8.47421	1.9273	11.6855
0.165141	0.982574	0.0516157	0.276742	0.539722	3.22329	0.719739	4.30679	1.10531	6.58175	1.65185	9.91915	0.31979	2.03141	0.829045	4.97857	1.34938	8.0342	1.39659	8.37871	1.92736	11.5505
0.166949	0.982037	0.0525154	0.278678	0.53963	3.18597	0.720652	4.26295	1.10543	6.50761	1.65189	9.80562	0.320763	2.01289	0.829145	4.92205	1.3494	7.94295	1.39705	8.28542	1.92741	11.4186
0.168753	0.981494	0.0534192	0.280597	0.539542	3.14952	0.72157	4.22015	1.10556	6.43515	1.65194	9.69468	0.321744	1.99485	0.829246	4.86682	1.34943	7.85376	1.39752	8.19426	1.92747	11.2897
0.170554	0.980943	0.0543268	0.282497	0.539458	3.1139	0.722495	4.17833	1.10569	6.36431	1.65198	9.58622	0.322731	1.97728	0.829349	4.81283	1.34945	7.76656	1.39799	8.10518	1.92752	11.1637
0.172352	0.980384	0.0552384	0.284379	0.539379	3.0791	0.723426	4.13747	1.10582	6.29504	1.65203	9.48018	0.323725	1.96016	0.829453	4.76006	1.34948	7.68129	1.39846	8.01809	1.92758	11.0404
0.174146	0.979817	0.0561537	0.286244	0.539303	3.04507	0.724364	4.09755	1.10595	6.22728	1.65208	9.37647	0.324725	1.94347	0.829559	4.70845	1.34951	7.59788	1.39894	7.93293	1.92764	10.9199
0.175936	0.979244	0.0570729	0.288091	0.539232	3.01181	0.725307	4.05852	1.10608	6.16099	1.65212	9.275	0.325731	1.92721	0.829666	4.65796	1.34954	7.51627	1.39942	7.84965	1.9277	10.802
0.177723	0.978663	0.0579957	0.289921	0.539166	2.97928	0.726256	4.02035	1.10622	6.09612	1.65217	9.17572	0.326744	1.91134	0.829775	4.60857	1.34957	7.43641	1.39991	7.76817	1.92776	10.6866
0.179506	0.978073	0.0589222	0.291734	0.539104	2.94746	0.727211	3.98303	1.10635	6.03262	1.65222	9.07855	0.327763	1.89587	0.829885	4.56024	1.34961	7.35824	1.4004	7.68844	1.92782	10.5736
0.181285	0.977477	0.0598521	0.29353	0.539046	2.91634	0.728172	3.94652	1.10649	5.97046	1.65227	8.98343	0.328788	1.88078	0.829997	4.51293	1.34964	7.2817	1.40089	7.61041	1.92788	10.4631
0.183061	0.976873	0.0607855	0.295309	0.538994	2.88588	0.729139	3.9108	1.10663	5.90959	1.65232	8.89029	0.329819	1.86605	0.83011	4.46661	1.34968	7.20675	1.40139	7.53402	1.92794	10.3548
0.184833	0.97626	0.0617223	0.297071	0.538946	2.85607	0.730112	3.87584	1.10677	5.84997	1.65237	8.79907	0.330856	1.85167	0.830224	4.42125	1.34971	7.13334	1.40189	7.45923	1.928	10.2488
0.186601	0.97564	0.0626623	0.298816	0.538903	2.82689	0.73109	3.84163	1.10691	5.79157	1.65242	8.7097	0.331898	1.83763	0.830341	4.37683	1.34975	7.06142	1.4024	7.38598	1.92806	10.1449
0.188365	0.975013	0.0636058	0.300545	0.538865	2.79832	0.732074	3.80813	1.10706	5.73434	1.65247	8.62215	0.332946	1.82391	0.830458	4.33331	1.34979	6.99095	1.40291	7.31423	1.92813	10.0431
0.190126	0.974377	0.0645524	0.302258	0.538832	2.77035	0.733063	3.77532	1.1072	5.67826	1.65252	8.53634	0.334	1.81052	0.830577	4.29066	1.34983	6.92188	1.40343	7.24393	1.92819	9.94333
0.191882	0.973733	0.0655021	0.303954	0.538804	2.74296	0.734058	3.74319	1.10735	5.62328	1.65257	8.45224	0.335059	1.79743	0.830698	4.24887	1.34987	6.85417	1.40394	7.17503	1.92826	9.84555
0.193634	0.973081	0.0664549	0.305635	0.538782	2.71612	0.735059	3.71172	1.1075	5.56939	1.65263	8.36978	0.336124	1.78464	0.83082	4.2079	1.34992	6.78779	1.40447	7.10751	1.92832	9.74968
0.195382	0.972422	0.0674107	0.3073	0.538765	2.68983	0.736065	3.68088	1.10765	5.51653	1.65268	8.28892	0.337194	1.77214	0.830944	4.16774	1.34996	6.72268	1.40499	7.04131	1.92839	9.65567
0.197125	0.971754	0.0683694	0.308948	0.538753	2.66407	0.737076	3.65066	1.1078	5.4647	1.65273	8.20962	0.338269	1.75991	0.831069	4.12835	1.35001	6.65883	1.40553	6.97641	1.92845	9.56346
0.198865	0.971078	0.0693311	0.310582	0.538747	2.63882	0.738093	3.62103	1.10796	5.41385	1.65279	8.13184	0.339349	1.74796	0.831196	4.08972	1.35005	6.59619	1.40606	6.91276	1.92852	9.47301
